Impedance values for 480 frequencies
Frequency(Hz)   Magnitude(ohm)    Phase(deg)  
20.000  9.230  36.029
20.291  9.323  36.641
20.585  9.417  37.213
20.884  9.512  37.732
21.188  9.609  38.226
21.495  9.709  38.722
21.808  9.812  39.250
22.124  9.921  39.844
22.446  10.041  40.492
22.772  10.170  41.164
23.103  10.309  41.842
23.438  10.458  42.504
23.779  10.635  43.141
24.124  10.822  43.786
24.474  11.018  44.439
24.830  11.224  45.101
25.191  11.432  45.772
25.557  11.650  46.453
25.928  11.879  47.142
26.304  12.121  47.840
26.686  12.408  48.544
27.074  12.722  49.250
27.467  13.057  49.958
27.866  13.414  50.662
28.271  13.776  51.305
28.682  14.167  51.931
29.098  14.587  52.541
29.521  15.069  53.147
29.950  15.643  53.742
30.385  16.293  54.310
30.826  17.019  54.839
31.274  17.824  55.251
31.728  18.744  55.578
32.189  19.781  55.817
32.657  20.984  56.009
33.131  22.387  56.048
33.612  23.998  55.920
34.101  25.851  55.354
34.596  28.036  54.296
35.099  30.568  52.756
35.608  33.587  50.731
36.126  37.150  47.870
36.650  41.263  44.080
37.183  46.487  38.447
37.723  52.386  31.174
38.271  56.964  21.804
38.827  59.343  9.503
39.391  59.697  -2.918
39.963  55.342  -13.859
40.543  48.638  -23.660
41.132  42.821  -31.700
41.730  37.763  -36.649
42.336  33.301  -40.113
42.951  29.507  -42.316
43.575  26.293  -43.713
44.208  23.687  -44.297
44.850  21.550  -44.358
45.501  19.792  -43.962
46.162  18.311  -43.222
46.833  17.020  -42.342
47.513  15.841  -41.415
48.203  14.805  -40.352
48.903  13.953  -38.922
49.614  13.220  -37.223
50.334  12.566  -35.280
51.066  11.990  -33.236
51.807  11.508  -31.277
52.560  11.109  -29.327
53.323  10.786  -27.258
54.098  10.520  -25.122
54.884  10.317  -23.402
55.681  10.117  -21.898
56.490  9.875  -20.568
57.310  9.630  -19.175
58.143  9.385  -17.567
58.987  9.176  -15.718
59.844  9.031  -13.635
60.713  8.905  -11.363
61.595  8.808  -9.061
62.490  8.765  -7.243
63.398  8.719  -5.345
64.319  8.669  -3.346
65.253  8.636  -1.887
66.201  8.601  -0.364
67.162  8.544  1.554
68.138  8.544  3.703
69.128  8.553  5.874
70.132  8.543  7.916
71.151  8.579  9.809
72.184  8.638  11.796
73.233  8.710  13.980
74.296  8.793  16.259
75.376  8.908  18.230
76.470  9.054  20.066
77.581  9.215  22.095
78.708  9.374  24.005
79.851  9.555  26.001
81.011  9.807  28.015
82.188  10.120  29.935
83.382  10.447  31.755
84.593  10.790  33.346
85.822  11.156  35.010
87.068  11.604  36.614
88.333  12.082  37.810
89.616  12.495  38.710
90.918  13.016  40.037
92.239  13.405  41.558
93.579  13.898  43.714
94.938  14.694  45.790
96.317  15.647  47.663
97.716  16.755  49.455
99.135  18.054  50.879
100.575  19.682  52.383
102.036  21.783  54.121
103.518  24.449  55.031
105.022  27.925  55.528
106.548  33.047  55.031
108.095  39.942  51.952
109.665  49.431  45.809
111.258  60.777  34.982
112.874  69.467  18.059
114.514  71.334  -0.338
116.177  64.520  -17.548
117.865  54.418  -29.183
119.577  45.835  -37.171
121.314  37.553  -42.402
123.076  31.403  -42.752
124.864  26.999  -39.134
126.678  25.597  -34.523
128.518  25.991  -31.514
130.385  28.080  -31.838
132.279  28.373  -40.528
134.200  25.121  -45.928
136.149  22.560  -46.060
138.127  21.283  -45.631
140.133  20.077  -46.111
142.169  19.027  -45.640
144.234  18.759  -45.693
146.329  17.959  -47.825
148.455  16.736  -48.690
150.611  15.535  -48.164
152.799  14.871  -47.002
155.018  14.127  -46.598
157.270  13.387  -45.853
159.554  12.738  -43.732
161.872  12.391  -42.098
164.223  11.952  -40.768
166.609  11.839  -38.320
169.029  11.746  -37.802
171.484  11.394  -37.420
173.975  11.171  -36.775
176.502  10.905  -36.163
179.066  10.564  -35.343
181.667  10.320  -33.619
184.306  10.096  -32.273
186.983  10.022  -31.060
189.699  9.821  -29.076
192.455  9.807  -27.300
195.250  9.917  -26.804
198.086  9.716  -27.310
200.964  9.357  -25.796
203.883  9.234  -22.961
206.844  9.494  -20.426
209.849  9.987  -20.657
212.897  9.834  -22.441
215.990  9.601  -22.765
219.127  9.371  -22.064
222.310  9.221  -21.076
225.539  9.019  -19.686
228.815  9.058  -17.859
232.139  9.196  -17.511
235.511  9.170  -17.785
238.932  9.025  -17.074
242.403  8.964  -16.426
245.924  8.883  -15.907
249.496  8.834  -14.264
253.120  8.923  -13.414
256.797  9.002  -13.488
260.527  8.854  -13.981
264.311  8.654  -13.347
268.151  8.531  -11.310
272.046  8.694  -9.600
275.997  8.856  -9.760
280.006  8.750  -10.082
284.074  8.676  -8.473
288.200  8.982  -8.552
292.386  8.615  -9.781
296.633  8.442  -7.461
300.942  8.567  -6.583
305.314  8.574  -5.710
309.748  8.637  -5.084
314.248  8.659  -4.430
318.812  8.872  -4.133
323.443  8.819  -5.207
328.142  8.587  -5.310
332.908  8.502  -4.097
337.744  8.465  -3.559
342.650  8.451  -2.625
347.627  8.400  -1.639
352.677  8.526  -0.948
357.799  8.455  -1.230
362.997  8.314  0.093
368.269  8.338  1.523
373.619  8.473  2.372
379.046  8.513  2.655
384.552  8.534  3.555
390.138  8.589  4.078
395.805  8.824  4.327
401.554  8.683  3.268
407.387  8.484  4.307
413.304  8.560  5.611
419.308  8.614  6.522
425.399  8.628  6.691
431.578  8.682  7.968
437.847  8.733  8.928
444.207  8.944  9.373
450.659  9.092  8.808
457.205  9.078  8.420
463.847  9.039  8.541
470.584  9.014  8.949
477.420  9.029  9.046
484.355  8.952  9.499
491.390  8.982  10.387
498.528  8.953  10.648
505.770  8.960  11.533
513.116  9.124  12.142
520.570  9.090  11.756
528.131  9.013  12.366
535.803  9.000  13.706
543.586  9.130  14.454
551.482  9.264  15.121
559.492  9.303  14.928
567.619  9.329  15.264
575.864  9.308  15.240
584.229  9.317  16.136
592.716  9.268  16.672
601.325  9.327  17.936
610.060  9.462  18.642
618.921  9.564  18.695
627.912  9.537  19.062
637.032  9.495  20.378
646.286  9.637  21.937
655.673  9.883  23.341
665.198  10.136  23.713
674.860  10.319  25.322
684.663  10.849  26.837
694.608  12.059  26.449
704.698  12.782  17.005
714.934  11.419  13.722
725.319  10.672  14.707
735.855  10.578  17.406
746.543  10.418  18.974
757.387  10.662  21.119
768.389  10.879  21.429
779.550  11.141  21.073
790.874  11.298  20.738
802.362  11.469  19.916
814.017  11.291  18.579
825.841  11.177  19.255
837.837  11.154  19.251
850.007  11.022  19.680
862.354  11.060  20.842
874.880  11.203  20.982
887.588  11.371  20.635
900.481  11.384  20.083
913.561  11.078  20.197
926.831  11.002  21.370
940.294  11.051  22.367
953.953  11.286  24.102
967.810  11.668  24.074
981.868  11.870  22.602
996.130  11.841  22.138
1010.599  11.835  20.494
1025.279  11.343  20.469
1040.172  11.242  22.669
1055.281  11.424  24.429
1070.610  11.731  24.566
1086.161  11.925  24.231
1101.938  12.175  23.065
1117.945  11.824  20.942
1134.184  11.342  22.162
1150.659  11.357  24.137
1167.373  11.413  24.734
1184.330  11.347  26.113
1201.533  11.577  28.240
1218.986  12.283  29.139
1236.693  12.782  25.055
1254.656  11.914  23.278
1272.881  11.650  25.475
1291.370  11.701  27.028
1310.129  11.937  27.517
1329.159  11.902  26.857
1348.466  11.684  27.611
1368.053  11.655  29.239
1387.925  11.775  30.554
1408.086  11.959  31.468
1428.539  12.109  31.650
1449.290  12.148  32.363
1470.342  12.241  33.223
1491.700  12.400  34.082
1513.367  12.543  34.881
1535.350  12.749  35.636
1557.652  13.003  36.410
1580.278  13.313  37.101
1603.233  13.651  37.314
1626.521  14.004  37.432
1650.147  14.402  37.105
1674.117  14.762  36.927
1698.434  15.393  35.716
1723.105  15.523  32.674
1748.135  15.133  30.614
1773.527  14.513  30.404
1799.289  14.148  31.605
1825.425  14.170  34.181
1851.941  14.830  35.173
1878.841  15.230  33.149
1906.133  14.820  31.714
1933.821  14.435  32.957
1961.911  14.457  34.403
1990.409  14.621  35.424
2019.321  14.981  35.779
2048.653  14.796  35.573
2078.411  14.898  37.350
2108.602  15.343  38.296
2139.230  15.707  37.296
2170.304  15.511  37.829
2201.829  15.862  39.178
2233.812  16.358  39.492
2266.260  16.854  38.945
2299.179  17.076  37.949
2332.576  17.299  37.559
2366.458  17.422  36.361
2400.833  17.262  36.401
2435.707  17.600  36.409
2471.087  17.703  35.468
2506.981  17.600  34.886
2543.397  17.438  34.941
2580.342  17.548  35.751
2617.823  17.969  35.182
2655.848  17.672  33.847
2694.426  17.407  34.777
2733.565  17.569  35.282
2773.272  17.687  35.196
2813.555  17.704  35.149
2854.424  17.543  35.193
2895.887  17.413  35.726
2937.951  17.436  36.865
2980.627  17.566  37.766
3023.923  17.840  38.240
3067.847  18.111  38.641
3112.410  18.301  38.703
3157.620  18.538  39.146
3203.487  18.851  39.273
3250.019  18.985  38.885
3297.228  19.168  39.134
3345.123  19.408  39.016
3393.713  19.448  38.678
3443.009  19.689  38.971
3493.021  19.736  38.121
3543.760  19.542  38.738
3595.235  19.737  39.685
3647.458  20.027  39.866
3700.440  20.336  40.304
3754.192  20.774  40.287
3808.724  21.323  39.336
3864.048  21.223  37.639
3920.176  20.793  37.617
3977.119  20.947  38.150
4034.890  20.945  38.099
4093.499  21.014  38.392
4152.960  21.155  38.181
4213.285  21.088  38.319
4274.485  21.109  38.349
4336.576  20.977  38.963
4399.567  21.250  39.494
4463.474  21.255  39.266
4528.309  21.185  39.964
4594.086  21.353  40.887
4660.818  21.595  41.680
4728.520  22.069  42.238
4797.205  22.550  41.968
4866.887  22.712  41.291
4937.582  22.796  41.303
5009.304  22.844  41.334
5082.067  23.018  41.571
5155.888  23.226  41.639
5230.781  23.470  41.267
5306.762  23.476  40.943
5383.846  23.270  40.967
5462.050  23.398  41.868
5541.390  23.520  42.096
5621.883  23.584  42.413
5703.544  23.771  42.988
5786.392  24.055  43.430
5870.443  24.310  43.553
5955.716  24.518  43.541
6042.227  24.664  43.700
6129.994  24.874  44.095
6219.037  25.106  44.357
6309.372  25.336  44.619
6401.021  25.597  44.737
6494.000  25.816  44.827
6588.329  26.056  45.071
6684.029  26.347  45.152
6781.120  26.595  45.191
6879.620  26.797  45.334
6979.551  27.064  45.423
7080.934  27.258  45.402
7183.790  27.487  45.601
7288.139  27.716  45.659
7394.004  28.010  45.782
7501.407  28.245  45.859
7610.370  28.453  45.931
7720.916  28.701  45.966
7833.067  28.974  46.152
7946.848  29.184  46.171
8062.282  29.384  46.227
8179.392  29.669  46.336
8298.203  29.901  46.472
8418.740  30.165  46.613
8541.028  30.397  46.712
8665.093  30.691  46.602
8790.959  30.939  46.701
8918.654  31.198  46.918
9048.203  31.560  47.030
9179.635  31.839  46.994
9312.976  32.116  47.028
9448.253  32.400  47.057
9585.495  32.603  47.033
9724.730  32.923  47.151
9865.989  33.143  47.156
10009.300  33.396  47.222
10154.691  33.676  47.309
10302.195  33.917  47.446
10451.842  34.227  47.526
10603.662  34.458  47.564
10757.688  34.760  47.650
10913.950  35.070  47.675
11072.483  35.364  47.778
11233.318  35.683  47.810
11396.490  35.944  47.860
11562.032  36.298  47.984
11729.979  36.604  48.046
11900.364  36.909  48.092
12073.226  37.262  48.157
12248.598  37.589  48.178
12426.517  37.948  48.284
12607.021  38.244  48.279
12790.146  38.594  48.296
12975.932  38.920  48.390
13164.416  39.293  48.449
13355.639  39.618  48.438
13549.639  39.949  48.486
13746.456  40.324  48.494
13946.133  40.705  48.538
14148.710  41.003  48.527
14354.229  41.426  48.598
14562.734  41.814  48.602
14774.269  42.209  48.649
14988.875  42.570  48.530
15206.599  42.978  48.440
15427.485  43.286  48.438
15651.580  43.679  48.348
15878.930  43.954  48.318
16109.582  44.245  48.297
16343.585  44.577  48.394
16580.986  44.907  48.370
16821.838  45.290  48.473
17066.186  45.618  48.509
17314.084  45.967  48.591
17565.582  46.348  48.576
17820.734  46.706  48.683
18079.594  47.084  48.681
18342.213  47.507  48.743
18608.645  47.913  48.808
18878.949  48.285  48.803
19153.178  48.722  48.837
19431.391  49.152  48.836
19713.646  49.566  48.917
20000.000  49.586  48.609
